# Transmittance data for ZAOT nov. 2022
CUTOFF	0	    15	    30	    45	    60	    75
300.01	74.355	72.289	73.009	67.905	70.481	29.691
301.04	75.420	72.788	73.591	68.437	70.820	29.918
301.96	76.014	73.640	74.330	69.130	71.177	30.070
302.98	76.152	74.505	75.063	69.934	71.527	30.170
303.99	76.000	75.099	75.657	70.790	71.829	30.244
305.01	75.804	75.303	76.066	71.658	72.074	30.321
306.01	76.084	75.083	76.596	72.894	72.577	30.695
307.02	76.846	74.779	77.074	74.292	72.988	31.036
308.02	77.936	74.673	77.653	75.809	73.358	31.371
309.01	79.029	75.006	78.439	77.390	73.728	31.718
310.00	79.736	75.722	79.371	78.948	74.083	32.082
310.99	79.895	76.631	80.292	80.404	74.374	32.459
311.98	79.627	77.471	81.065	81.695	74.568	32.841
312.96	79.207	78.079	81.606	82.810	74.647	33.185
314.05	78.968	78.441	81.923	83.745	74.580	33.455
315.02	79.083	78.730	82.099	84.527	74.284	33.605
316.00	79.560	79.155	82.242	85.182	73.662	33.573
316.97	80.292	79.879	82.438	85.750	72.649	33.283
318.05	81.028	80.928	82.728	86.251	71.283	32.698
319.02	81.583	82.210	83.103	86.718	69.571	31.775
319.98	81.881	83.514	83.514	87.152	67.490	30.465
320.95	82.062	84.610	83.895	87.562	65.110	28.816
322.03	82.322	85.354	84.239	87.962	62.517	26.862
323.00	82.820	85.725	84.534	88.348	59.809	24.666
323.97	83.640	85.811	84.791	88.713	57.063	22.295
325.04	84.691	85.847	85.053	89.051	54.389	19.842
326.02	85.834	85.984	85.325	89.357	51.921	17.384
326.99	86.879	86.311	85.604	89.629	49.784	14.989
327.96	87.618	86.801	85.849	89.847	48.062	12.734
329.05	88.023	87.368	86.028	90.030	46.705	10.647
330.03	88.144	87.899	86.107	90.171	45.681	8.773
331.01	88.130	88.269	86.067	90.288	44.987	7.161
332.00	88.146	88.471	85.957	90.392	44.561	5.793
332.99	88.293	88.525	85.832	90.494	44.350	4.673
333.98	88.593	88.498	85.776	90.605	44.280	3.779
334.97	88.998	88.484	85.860	90.724	44.288	3.103
335.97	89.421	88.497	86.116	90.857	44.310	2.586
336.98	89.768	88.538	86.551	90.994	44.334	2.198
337.99	90.005	88.585	87.132	91.134	44.356	1.913
339.00	90.130	88.630	87.820	91.276	44.374	1.703
340.02	90.176	88.657	88.552	91.421	44.394	1.556
341.04	90.173	88.688	89.280	91.562	44.409	1.456
341.95	90.162	88.765	89.960	91.695	44.426	1.390
342.98	90.176	88.917	90.568	91.828	44.454	1.356
344.02	90.192	89.157	91.091	91.947	44.491	1.354
344.95	90.197	89.487	91.538	92.058	44.541	1.378
345.99	90.209	89.876	91.942	92.171	44.619	1.415
347.04	90.191	90.267	92.296	92.279	44.712	1.494
347.98	90.181	90.601	92.612	92.372	44.818	1.613
349.03	90.223	90.812	92.912	92.462	44.946	1.795
349.98	90.336	90.864	93.188	92.547	45.084	2.064
351.04	90.544	90.760	93.461	92.631	45.228	2.461
352.00	90.861	90.513	93.708	92.707	45.377	3.081
352.95	91.266	90.175	93.929	92.764	45.524	4.018
354.03	91.672	89.842	94.122	92.808	45.666	5.404
354.99	92.030	89.579	94.299	92.844	45.801	7.327
355.95	92.272	89.442	94.436	92.863	45.931	9.831
357.04	92.348	89.447	94.534	92.868	46.046	12.678
358.01	92.266	89.585	94.581	92.845	46.162	15.589
358.98	92.055	89.835	94.613	92.832	46.283	18.342
359.95	91.728	90.171	94.610	92.815	46.394	20.765
361.05	91.401	90.561	94.595	92.818	46.503	22.748
362.02	91.103	90.950	94.536	92.802	46.579	24.321
363.00	90.893	91.328	94.471	92.803	46.627	25.458
363.98	90.792	91.683	94.391	92.817	46.608	26.148
364.95	90.814	92.005	94.315	92.820	46.497	26.322
366.06	90.929	92.311	94.236	92.802	46.273	25.939
367.04	91.137	92.603	94.163	92.744	45.874	25.025
368.02	91.397	92.888	94.105	92.643	45.297	23.889
368.99	91.667	93.181	94.078	92.461	44.522	22.828
369.97	91.951	93.502	94.086	92.098	43.548	22.129
370.95	92.213	93.806	94.103	91.428	42.380	21.955
372.05	92.454	94.104	94.138	90.297	41.003	22.478
373.03	92.693	94.409	94.208	88.739	39.493	23.570
374.00	92.939	94.691	94.302	86.741	37.873	25.112
374.98	93.185	94.950	94.414	84.283	36.179	26.941
375.95	93.437	95.153	94.504	81.432	34.475	28.854
377.04	93.716	95.313	94.580	78.221	32.806	30.709
378.00	94.007	95.437	94.645	74.702	31.236	32.354
378.97	94.300	95.540	94.696	70.997	29.800	33.697
380.05	94.613	95.608	94.737	67.247	28.531	34.653
381.01	94.914	95.632	94.761	63.612	27.450	35.189
381.96	95.201	95.658	94.792	60.251	26.582	35.289
383.04	95.432	95.639	94.810	57.332	25.948	34.922
383.98	95.615	95.599	94.832	54.846	25.522	34.181
385.05	95.749	95.540	94.848	52.801	25.302	33.150
385.99	95.853	95.448	94.873	51.226	25.310	31.949
387.04	95.927	95.357	94.916	50.068	25.533	30.761
387.98	95.971	95.246	94.969	49.293	25.953	29.697
389.02	95.997	95.114	95.019	48.842	26.545	28.875
389.95	95.999	94.963	95.056	48.588	27.301	28.350
390.99	96.002	94.829	95.091	48.434	28.223	28.202
392.02	95.967	94.699	95.095	48.291	29.295	28.422
393.05	95.925	94.606	95.102	48.141	30.513	29.017
393.96	95.879	94.578	95.116	47.954	31.836	29.910
394.98	95.804	94.579	95.110	47.735	33.225	31.019
395.99	95.687	94.604	95.079	47.524	34.558	32.272
397.00	95.515	94.674	95.026	47.290	35.941	33.612
398.01	95.360	94.790	95.008	47.042	37.328	34.976
399.01	95.153	94.884	94.989	46.810	38.698	36.247
400.00	94.973	94.993	94.991	46.629	40.049	37.353
401.00	94.839	95.086	95.017	46.448	41.324	38.249
401.98	94.728	95.156	95.046	46.222	42.514	38.868
402.97	94.679	95.205	95.107	45.837	43.578	39.152
403.95	94.686	95.196	95.154	45.149	44.465	39.099
405.04	94.713	95.119	95.150	44.055	45.209	38.746
406.02	94.833	95.072	95.173	42.505	45.840	38.156
406.99	94.980	95.007	95.175	40.367	46.422	37.378
407.96	95.149	94.988	95.178	37.769	46.838	36.455
409.04	95.260	94.957	95.125	34.774	47.105	35.443
410.01	95.400	95.024	95.079	31.412	47.257	34.458
410.97	95.466	95.069	95.026	27.801	47.296	33.544
412.05	95.478	95.134	94.941	24.045	47.263	32.754
413.01	95.450	95.196	94.855	20.258	47.175	32.155
413.98	95.404	95.238	94.723	16.589	47.063	31.786
415.05	95.326	95.286	94.568	13.205	46.970	31.656
416.02	95.296	95.377	94.449	10.235	46.892	31.781
416.98	95.222	95.365	94.233	7.739	46.807	32.145
417.95	95.195	95.384	94.012	5.781	46.791	32.730
419.03	95.198	95.336	93.728	4.297	46.815	33.514
420.00	95.252	95.284	93.376	3.191	46.909	34.456
420.98	95.328	95.199	92.872	2.431	47.054	35.504
421.95	95.441	95.168	92.132	1.876	47.272	36.649
423.04	95.517	95.129	91.031	1.476	47.546	37.804
424.03	95.580	95.114	89.453	1.196	47.852	38.898
425.01	95.612	95.136	87.389	0.992	48.190	39.892
426.00	95.623	95.183	84.790	0.838	48.539	40.739
427.00	95.568	95.212	81.688	0.719	48.895	41.386
427.99	95.511	95.277	78.231	0.633	49.257	41.807
429.00	95.432	95.330	74.563	0.571	49.589	42.011
430.00	95.361	95.392	70.753	0.512	49.898	41.987
431.01	95.316	95.481	66.921	0.474	50.160	41.742
432.03	95.277	95.540	63.169	0.438	50.382	41.307
433.05	95.247	95.567	59.655	0.412	50.540	40.699
433.96	95.275	95.614	56.543	0.396	50.657	40.001
434.99	95.321	95.670	53.864	0.372	50.752	39.277
436.02	95.396	95.723	51.545	0.350	50.836	38.590
437.06	95.462	95.741	49.442	0.343	50.900	37.981
437.99	95.546	95.750	47.296	0.338	50.976	37.527
439.03	95.614	95.711	44.946	0.323	51.073	37.218
439.97	95.671	95.615	42.112	0.317	51.192	37.047
441.02	95.723	95.472	38.931	0.317	51.352	37.032
441.97	95.750	95.238	35.422	0.311	51.541	37.179
443.03	95.774	94.964	31.630	0.312	51.745	37.507
443.98	95.803	94.678	27.645	0.318	51.976	38.013
445.05	95.859	94.409	23.521	0.324	52.238	38.698
446.00	95.913	94.140	19.351	0.331	52.489	39.586
446.96	95.937	93.908	15.288	0.344	52.710	40.707
448.04	95.967	93.737	11.541	0.357	52.935	42.079
449.01	95.943	93.600	8.328	0.381	53.129	43.613
449.97	95.883	93.526	5.739	0.410	53.306	45.138
451.06	95.745	93.436	3.876	0.445	53.450	46.443
452.03	95.523	93.308	2.570	0.479	53.555	47.473
453.00	95.253	93.156	1.709	0.535	53.633	48.269
453.98	94.943	92.962	1.186	0.595	53.687	48.876
454.95	94.628	92.727	0.846	0.665	53.727	49.314
456.05	94.322	92.350	0.624	0.761	53.733	49.540
457.02	94.080	91.761	0.479	0.892	53.717	49.509
458.00	93.913	90.791	0.378	1.064	53.703	49.165
458.98	93.825	89.259	0.302	1.286	53.671	48.513
459.95	93.812	86.978	0.249	1.573	53.632	47.642
461.05	93.787	83.670	0.208	1.996	53.575	46.899
462.03	93.744	79.402	0.179	2.588	53.528	46.641
463.00	93.637	74.150	0.162	3.420	53.470	46.960
463.98	93.434	67.999	0.144	4.532	53.416	47.713
464.95	93.155	61.091	0.133	6.018	53.356	48.513
466.04	92.873	53.724	0.121	7.868	53.305	49.058
467.01	92.640	46.151	0.110	10.039	53.264	49.264
467.98	92.478	38.562	0.104	12.523	53.293	49.157
468.95	92.133	31.211	0.098	15.229	53.400	48.938
470.03	91.014	24.325	0.101	18.107	53.595	48.678
470.99	88.687	18.130	0.100	21.049	53.872	48.385
471.95	84.685	12.942	0.099	23.901	54.196	47.940
473.03	79.299	8.769	0.094	26.534	54.496	47.218
473.98	72.794	5.659	0.088	28.764	54.730	46.196
475.04	65.702	3.520	0.083	30.496	54.866	44.971
475.99	58.248	2.227	0.082	31.587	54.929	43.879
477.05	50.515	1.438	0.086	32.077	54.963	43.216
477.99	42.559	0.958	0.076	32.073	55.008	43.079
479.04	34.374	0.675	0.071	31.620	55.034	43.479
479.97	26.257	0.497	0.071	30.866	55.089	44.266
481.01	18.827	0.381	0.065	29.895	55.286	45.440
482.05	12.557	0.302	0.060	28.844	55.718	47.075
482.96	8.006	0.247	0.055	27.843	56.431	49.197
483.99	4.927	0.206	0.055	27.009	57.400	51.684
485.01	3.098	0.174	0.055	26.500	58.610	54.361
486.03	1.978	0.155	0.054	26.396	59.956	56.923
487.05	1.322	0.137	0.054	26.789	61.228	59.031
488.06	0.928	0.120	0.049	27.633	62.230	60.567
488.95	0.671	0.110	0.057	28.861	62.902	61.558
489.95	0.507	0.105	0.060	30.413	63.278	62.052
490.95	0.396	0.101	0.068	32.214	63.414	62.092
492.05	0.319	0.096	0.067	34.184	63.262	61.653
493.04	0.264	0.091	0.071	36.248	62.790	60.630
494.02	0.230	0.090	0.078	38.301	62.007	59.003
495.00	0.204	0.093	0.081	40.270	61.015	56.891
495.98	0.186	0.096	0.088	42.054	59.930	54.488
496.95	0.176	0.094	0.098	43.579	58.897	52.081
498.03	0.166	0.097	0.104	44.773	58.184	50.019
499.00	0.160	0.103	0.110	45.605	58.055	48.410
499.97	0.151	0.106	0.113	46.066	58.585	47.240
501.04	0.149	0.105	0.115	46.174	59.760	46.436
502.01	0.147	0.107	0.114	45.928	61.476	45.923
502.97	0.138	0.109	0.116	45.394	63.536	45.657
504.04	0.137	0.109	0.122	44.611	65.747	45.641
505.00	0.128	0.107	0.120	43.664	67.944	45.931
505.96	0.123	0.102	0.123	42.639	69.945	46.576
507.03	0.116	0.102	0.125	41.623	71.559	47.618
507.99	0.111	0.101	0.124	40.690	72.659	49.178
508.96	0.107	0.100	0.126	39.949	73.251	51.191
510.03	0.106	0.096	0.129	39.542	73.298	53.559
511.00	0.102	0.092	0.135	39.528	72.822	56.095
511.97	0.098	0.092	0.137	39.924	71.846	58.564
513.05	0.094	0.088	0.146	40.700	70.400	60.767
514.02	0.097	0.084	0.151	41.800	68.634	62.533
515.00	0.096	0.087	0.157	43.122	66.719	63.846
515.98	0.096	0.080	0.168	44.527	64.824	64.669
516.96	0.092	0.079	0.186	45.892	63.126	65.006
517.95	0.092	0.076	0.204	47.197	61.798	64.861
519.05	0.085	0.072	0.228	48.458	60.955	64.146
520.05	0.081	0.068	0.257	49.672	60.571	62.932
521.05	0.078	0.068	0.305	50.756	60.590	61.321
522.05	0.080	0.064	0.367	51.657	60.993	59.506
522.95	0.077	0.064	0.462	52.361	61.786	57.702
523.96	0.073	0.064	0.595	52.921	62.947	56.081
524.98	0.070	0.061	0.824	53.421	64.532	54.787
526.00	0.066	0.057	1.198	54.011	66.458	53.801
527.03	0.063	0.057	1.846	54.934	68.713	53.084
528.06	0.063	0.057	2.883	56.293	71.181	52.585
528.98	0.063	0.057	4.327	57.982	73.694	52.221
530.02	0.063	0.053	6.201	59.861	76.115	51.986
530.95	0.059	0.053	8.390	61.715	78.280	51.851
532.00	0.056	0.053	10.801	63.401	80.078	51.827
533.05	0.050	0.053	13.374	64.727	81.357	51.918
533.99	0.050	0.052	15.977	65.626	82.081	52.141
535.05	0.046	0.052	18.420	66.033	82.229	52.546
536.00	0.046	0.054	20.509	66.006	81.809	53.153
536.95	0.045	0.053	22.118	65.581	80.919	53.993
538.02	0.045	0.056	23.131	64.720	79.603	55.086
538.98	0.041	0.052	23.486	63.463	77.983	56.465
540.06	0.040	0.051	23.290	61.958	76.236	58.102
541.02	0.042	0.053	22.587	60.324	74.498	59.948
541.98	0.047	0.052	21.543	58.721	72.893	61.934
542.95	0.049	0.049	20.287	57.313	71.504	63.956
544.03	0.051	0.051	18.910	56.293	70.431	65.866
545.00	0.050	0.053	17.572	55.769	69.645	67.559
545.97	0.050	0.052	16.495	55.827	69.158	68.905
546.94	0.049	0.052	15.907	56.415	68.891	69.811
548.04	0.046	0.054	15.953	57.470	68.821	70.268
549.01	0.046	0.053	16.773	58.957	68.914	70.266
549.98	0.046	0.056	18.461	60.850	69.174	69.786
550.96	0.046	0.058	21.059	63.161	69.619	68.874
552.05	0.046	0.061	24.396	65.765	70.254	67.616
553.02	0.041	0.061	28.291	68.579	71.104	66.101
553.99	0.044	0.066	32.479	71.476	72.176	64.435
554.97	0.044	0.069	36.663	74.335	73.520	62.755
556.06	0.045	0.072	40.601	76.984	75.089	61.171
557.02	0.047	0.077	44.171	79.283	76.854	59.768
557.99	0.047	0.080	47.274	81.046	78.779	58.635
558.96	0.050	0.085	49.853	82.237	80.761	57.757
560.04	0.053	0.093	51.702	82.770	82.724	57.117
561.00	0.056	0.103	52.679	82.673	84.550	56.696
561.96	0.056	0.116	52.604	81.902	86.120	56.477
563.03	0.056	0.132	51.639	80.613	87.374	56.415
563.99	0.061	0.153	49.946	78.889	88.220	56.490
565.05	0.061	0.179	47.833	76.867	88.640	56.673
566.00	0.062	0.216	45.630	74.667	88.552	56.968
567.06	0.064	0.260	43.633	72.455	88.027	57.343
568.00	0.070	0.326	42.036	70.353	87.084	57.815
569.05	0.075	0.430	40.977	68.498	85.772	58.375
569.98	0.081	0.591	40.554	66.919	84.200	59.028
571.03	0.086	0.845	40.816	65.670	82.460	59.763
571.95	0.089	1.304	41.794	64.721	80.659	60.609
572.99	0.094	2.141	43.414	64.080	78.880	61.570
574.02	0.103	3.557	45.463	63.717	77.191	62.658
575.04	0.111	5.638	47.747	63.646	75.662	63.871
575.95	0.122	8.354	50.050	63.857	74.316	65.228
576.96	0.136	11.482	52.223	64.362	73.183	66.698
577.98	0.150	14.720	54.174	65.168	72.247	68.260
578.98	0.167	17.894	55.835	66.284	71.520	69.861
579.98	0.192	21.025	57.156	67.728	70.978	71.447
580.98	0.226	24.196	58.106	69.451	70.619	72.935
581.97	0.274	27.299	58.736	71.413	70.413	74.268
582.96	0.342	29.915	59.024	73.554	70.353	75.341
583.95	0.436	31.563	59.092	75.826	70.463	76.095
585.04	0.569	32.072	59.056	78.105	70.710	76.484
586.02	0.766	31.526	59.064	80.317	71.106	76.487
586.99	1.100	30.124	59.215	82.343	71.664	76.053
587.96	1.668	28.232	59.550	84.099	72.372	75.236
589.04	2.728	26.218	60.053	85.495	73.232	74.067
590.00	5.005	24.310	60.668	86.477	74.285	72.588
590.97	9.083	22.517	61.315	86.997	75.513	70.890
592.03	14.882	20.804	61.924	87.071	76.915	69.057
592.99	21.082	19.296	62.466	86.745	78.460	67.176
593.95	26.477	18.378	62.951	86.081	80.132	65.342
595.02	30.181	18.504	63.389	85.112	81.885	63.620
595.97	33.039	18.211	63.576	84.657	82.738	62.611
597.04	36.448	18.327	63.692	84.030	83.652	61.633
597.99	40.519	18.764	63.755	83.276	84.602	60.745
598.95	45.385	19.435	63.807	82.435	85.618	59.919
600.02	50.967	20.328	63.866	81.559	86.697	59.182